#   a)   Diode 1, Heizleistung 2.2 A bei 4.1 V
#   U    I     
#   V    mA     
#
    0    0 
    10   0.03
    30   0.12
    50   0.23
    70   0.35
    90   0.44
    110  0.50
    130  0.53
    150  0.55
    170  0.57
    190  0.58
    210  0.58
    230  0.58
    250  0.59