#   a)   Diode 1, Heizleistung 2.3 A bei 4.8 V
#   U    I     
#   V    mA     
#
    0    0 
    10   0.03
    30   0.13
    50   0.26
    70   0.43
    90   0.59
    110  0.73
    130  0.84
    150  0.96
    170  1.05
    190  1.11
    210  1.12
    230  1.15
    250  1.16