#   a)   Diode 1, Heizleistung 2.4 A bei 5 V
#   U    I     
#   V    mA     
#
    0    0 
    10   0.02
    30   0.13 
    50   0.29
    70   0.50
    90   0.70
    110  0.89
    130  1.11
    150  1.36
    170  1.54
    190  1.70
    210  1.87
    230  2.01
    250  2.14