#   a)   Diode 1, Heizleistung 2.5 A bei 5.5 V
#   U    I     
#   V    mA     
#
    0    0
    10   0.03
    20   0.07
    30   0.14  
    40   0.21  
    50   0.30
    60   0.40
    70   0.52
    80   0.63
    90   0.76
    100  0.89
    110  1.03
    120  1.16
    130  1.28
    140  1.42
    150  1.55
    160  1.68
    170  1.81
    180  1.93
    190  2.07
    200  2.20
    210  2.34
    220  2.48
    230  2.61
    240  2.73
    250  2.88